"pba-12v"
"Wavelength nm.","Abs."
190.00,0.173
190.20,0.173
190.40,0.174
190.60,0.175
190.80,0.176
191.00,0.178
191.20,0.178
191.40,0.180
191.60,0.180
191.80,0.181
192.00,0.181
192.20,0.180
192.40,0.181
192.60,0.182
192.80,0.183
193.00,0.183
193.20,0.183
193.40,0.184
193.60,0.184
193.80,0.185
194.00,0.185
194.20,0.186
194.40,0.187
194.60,0.189
194.80,0.190
195.00,0.190
195.20,0.191
195.40,0.192
195.60,0.193
195.80,0.194
196.00,0.195
196.20,0.196
196.40,0.196
196.60,0.197
196.80,0.198
197.00,0.199
197.20,0.199
197.40,0.199
197.60,0.200
197.80,0.200
198.00,0.201
198.20,0.201
198.40,0.201
198.60,0.201
198.80,0.201
199.00,0.202
199.20,0.202
199.40,0.201
199.60,0.201
199.80,0.202
200.00,0.202
200.20,0.202
200.40,0.202
200.60,0.202
200.80,0.202
201.00,0.203
201.20,0.203
201.40,0.202
201.60,0.203
201.80,0.203
202.00,0.203
202.20,0.203
202.40,0.203
202.60,0.203
202.80,0.204
203.00,0.204
203.20,0.204
203.40,0.204
203.60,0.204
203.80,0.204
204.00,0.204
204.20,0.204
204.40,0.204
204.60,0.204
204.80,0.204
205.00,0.204
205.20,0.203
205.40,0.203
205.60,0.203
205.80,0.203
206.00,0.202
206.20,0.203
206.40,0.202
206.60,0.202
206.80,0.201
207.00,0.201
207.20,0.201
207.40,0.200
207.60,0.200
207.80,0.199
208.00,0.199
208.20,0.199
208.40,0.198
208.60,0.198
208.80,0.196
209.00,0.195
209.20,0.195
209.40,0.194
209.60,0.193
209.80,0.193
210.00,0.192
210.20,0.191
210.40,0.190
210.60,0.189
210.80,0.188
211.00,0.187
211.20,0.186
211.40,0.185
211.60,0.185
211.80,0.184
212.00,0.183
212.20,0.182
212.40,0.181
212.60,0.180
212.80,0.179
213.00,0.179
213.20,0.177
213.40,0.177
213.60,0.176
213.80,0.175
214.00,0.174
214.20,0.174
214.40,0.173
214.60,0.172
214.80,0.171
215.00,0.170
215.20,0.169
215.40,0.168
215.60,0.167
215.80,0.166
216.00,0.165
216.20,0.164
216.40,0.163
216.60,0.162
216.80,0.161
217.00,0.160
217.20,0.159
217.40,0.158
217.60,0.157
217.80,0.156
218.00,0.155
218.20,0.154
218.40,0.153
218.60,0.152
218.80,0.151
219.00,0.150
219.20,0.149
219.40,0.148
219.60,0.147
219.80,0.146
220.00,0.145
220.20,0.145
220.40,0.144
220.60,0.143
220.80,0.142
221.00,0.141
221.20,0.140
221.40,0.140
221.60,0.139
221.80,0.138
222.00,0.137
222.20,0.137
222.40,0.136
222.60,0.135
222.80,0.134
223.00,0.133
223.20,0.133
223.40,0.132
223.60,0.131
223.80,0.131
224.00,0.130
224.20,0.129
224.40,0.128
224.60,0.127
224.80,0.127
225.00,0.127
225.20,0.126
225.40,0.125
225.60,0.125
225.80,0.124
226.00,0.124
226.20,0.123
226.40,0.123
226.60,0.122
226.80,0.122
227.00,0.121
227.20,0.121
227.40,0.120
227.60,0.120
227.80,0.119
228.00,0.119
228.20,0.118
228.40,0.118
228.60,0.118
228.80,0.117
229.00,0.117
229.20,0.117
229.40,0.116
229.60,0.116
229.80,0.116
230.00,0.115
230.20,0.115
230.40,0.115
230.60,0.114
230.80,0.114
231.00,0.114
231.20,0.114
231.40,0.113
231.60,0.113
231.80,0.113
232.00,0.113
232.20,0.113
232.40,0.113
232.60,0.113
232.80,0.112
233.00,0.112
233.20,0.112
233.40,0.112
233.60,0.112
233.80,0.112
234.00,0.112
234.20,0.113
234.40,0.112
234.60,0.112
234.80,0.113
235.00,0.113
235.20,0.113
235.40,0.113
235.60,0.113
235.80,0.113
236.00,0.113
236.20,0.113
236.40,0.113
236.60,0.113
236.80,0.114
237.00,0.114
237.20,0.114
237.40,0.114
237.60,0.114
237.80,0.114
238.00,0.114
238.20,0.115
238.40,0.115
238.60,0.115
238.80,0.115
239.00,0.116
239.20,0.116
239.40,0.116
239.60,0.116
239.80,0.117
240.00,0.117
240.20,0.117
240.40,0.117
240.60,0.118
240.80,0.118
241.00,0.118
241.20,0.118
241.40,0.119
241.60,0.119
241.80,0.119
242.00,0.120
242.20,0.119
242.40,0.120
242.60,0.120
242.80,0.121
243.00,0.121
243.20,0.121
243.40,0.121
243.60,0.122
243.80,0.122
244.00,0.122
244.20,0.123
244.40,0.123
244.60,0.123
244.80,0.124
245.00,0.124
245.20,0.124
245.40,0.124
245.60,0.124
245.80,0.125
246.00,0.125
246.20,0.125
246.40,0.125
246.60,0.126
246.80,0.126
247.00,0.126
247.20,0.127
247.40,0.127
247.60,0.127
247.80,0.128
248.00,0.128
248.20,0.128
248.40,0.128
248.60,0.129
248.80,0.129
249.00,0.129
249.20,0.129
249.40,0.129
249.60,0.129
249.80,0.130
250.00,0.130
250.20,0.130
250.40,0.130
250.60,0.130
250.80,0.130
251.00,0.130
251.20,0.131
251.40,0.131
251.60,0.131
251.80,0.131
252.00,0.131
252.20,0.131
252.40,0.131
252.60,0.131
252.80,0.131
253.00,0.132
253.20,0.132
253.40,0.132
253.60,0.132
253.80,0.132
254.00,0.132
254.20,0.132
254.40,0.132
254.60,0.132
254.80,0.132
255.00,0.132
255.20,0.133
255.40,0.133
255.60,0.133
255.80,0.133
256.00,0.133
256.20,0.133
256.40,0.133
256.60,0.133
256.80,0.133
257.00,0.133
257.20,0.133
257.40,0.133
257.60,0.133
257.80,0.133
258.00,0.133
258.20,0.133
258.40,0.133
258.60,0.133
258.80,0.133
259.00,0.133
259.20,0.133
259.40,0.133
259.60,0.133
259.80,0.133
260.00,0.133
260.20,0.133
260.40,0.133
260.60,0.132
260.80,0.132
261.00,0.132
261.20,0.132
261.40,0.132
261.60,0.132
261.80,0.132
262.00,0.131
262.20,0.131
262.40,0.131
262.60,0.131
262.80,0.131
263.00,0.131
263.20,0.131
263.40,0.131
263.60,0.130
263.80,0.130
264.00,0.130
264.20,0.130
264.40,0.130
264.60,0.129
264.80,0.129
265.00,0.129
265.20,0.128
265.40,0.128
265.60,0.128
265.80,0.128
266.00,0.128
266.20,0.128
266.40,0.127
266.60,0.127
266.80,0.127
267.00,0.126
267.20,0.126
267.40,0.126
267.60,0.126
267.80,0.125
268.00,0.125
268.20,0.125
268.40,0.125
268.60,0.124
268.80,0.124
269.00,0.123
269.20,0.123
269.40,0.123
269.60,0.122
269.80,0.122
270.00,0.122
270.20,0.121
270.40,0.121
270.60,0.121
270.80,0.120
271.00,0.120
271.20,0.120
271.40,0.119
271.60,0.119
271.80,0.118
272.00,0.118
272.20,0.118
272.40,0.117
272.60,0.117
272.80,0.116
273.00,0.116
273.20,0.115
273.40,0.115
273.60,0.114
273.80,0.114
274.00,0.113
274.20,0.113
274.40,0.113
274.60,0.112
274.80,0.112
275.00,0.111
275.20,0.111
275.40,0.110
275.60,0.110
275.80,0.109
276.00,0.109
276.20,0.108
276.40,0.108
276.60,0.108
276.80,0.107
277.00,0.107
277.20,0.106
277.40,0.106
277.60,0.105
277.80,0.105
278.00,0.104
278.20,0.104
278.40,0.103
278.60,0.103
278.80,0.102
279.00,0.102
279.20,0.101
279.40,0.101
279.60,0.100
279.80,0.099
280.00,0.099
280.20,0.098
280.40,0.098
280.60,0.097
280.80,0.097
281.00,0.096
281.20,0.095
281.40,0.095
281.60,0.094
281.80,0.094
282.00,0.093
282.20,0.093
282.40,0.092
282.60,0.092
282.80,0.091
283.00,0.091
283.20,0.090
283.40,0.090
283.60,0.089
283.80,0.089
284.00,0.088
284.20,0.088
284.40,0.087
284.60,0.087
284.80,0.086
285.00,0.086
285.20,0.085
285.40,0.085
285.60,0.084
285.80,0.084
286.00,0.083
286.20,0.083
286.40,0.082
286.60,0.081
286.80,0.081
287.00,0.080
287.20,0.080
287.40,0.079
287.60,0.079
287.80,0.078
288.00,0.078
288.20,0.077
288.40,0.077
288.60,0.076
288.80,0.076
289.00,0.075
289.20,0.075
289.40,0.074
289.60,0.073
289.80,0.073
290.00,0.072
290.20,0.072
290.40,0.071
290.60,0.071
290.80,0.070
291.00,0.070
291.20,0.069
291.40,0.069
291.60,0.068
291.80,0.068
292.00,0.067
292.20,0.067
292.40,0.066
292.60,0.066
292.80,0.065
293.00,0.065
293.20,0.064
293.40,0.063
293.60,0.063
293.80,0.062
294.00,0.062
294.20,0.062
294.40,0.061
294.60,0.061
294.80,0.060
295.00,0.060
295.20,0.059
295.40,0.059
295.60,0.058
295.80,0.058
296.00,0.057
296.20,0.057
296.40,0.056
296.60,0.056
296.80,0.055
297.00,0.055
297.20,0.054
297.40,0.054
297.60,0.053
297.80,0.053
298.00,0.053
298.20,0.052
298.40,0.052
298.60,0.051
298.80,0.051
299.00,0.051
299.20,0.050
299.40,0.050
299.60,0.050
299.80,0.050
300.00,0.049
300.20,0.049
300.40,0.049
300.60,0.048
300.80,0.048
301.00,0.048
301.20,0.047
301.40,0.047
301.60,0.046
301.80,0.046
302.00,0.046
302.20,0.045
302.40,0.045
302.60,0.045
302.80,0.045
303.00,0.044
303.20,0.044
303.40,0.044
303.60,0.043
303.80,0.043
304.00,0.043
304.20,0.042
304.40,0.042
304.60,0.042
304.80,0.042
305.00,0.041
305.20,0.041
305.40,0.041
305.60,0.040
305.80,0.040
306.00,0.040
306.20,0.040
306.40,0.040
306.60,0.039
306.80,0.039
307.00,0.039
307.20,0.039
307.40,0.039
307.60,0.038
307.80,0.038
308.00,0.038
308.20,0.038
308.40,0.038
308.60,0.038
308.80,0.037
309.00,0.037
309.20,0.037
309.40,0.037
309.60,0.037
309.80,0.036
310.00,0.036
310.20,0.036
310.40,0.036
310.60,0.036
310.80,0.035
311.00,0.035
311.20,0.035
311.40,0.035
311.60,0.035
311.80,0.035
312.00,0.035
312.20,0.035
312.40,0.034
312.60,0.034
312.80,0.034
313.00,0.034
313.20,0.034
313.40,0.034
313.60,0.034
313.80,0.034
314.00,0.034
314.20,0.034
314.40,0.034
314.60,0.033
314.80,0.033
315.00,0.033
315.20,0.033
315.40,0.033
315.60,0.033
315.80,0.033
316.00,0.033
316.20,0.033
316.40,0.033
316.60,0.033
316.80,0.033
317.00,0.033
317.20,0.033
317.40,0.033
317.60,0.033
317.80,0.033
318.00,0.033
318.20,0.033
318.40,0.033
318.60,0.033
318.80,0.033
319.00,0.032
319.20,0.032
319.40,0.032
319.60,0.032
319.80,0.032
320.00,0.032
320.20,0.032
320.40,0.032
320.60,0.032
320.80,0.032
321.00,0.032
321.20,0.032
321.40,0.032
321.60,0.032
321.80,0.032
322.00,0.032
322.20,0.032
322.40,0.032
322.60,0.032
322.80,0.032
323.00,0.032
323.20,0.032
323.40,0.032
323.60,0.032
323.80,0.032
324.00,0.032
324.20,0.032
324.40,0.032
324.60,0.032
324.80,0.032
325.00,0.032
325.20,0.032
325.40,0.032
325.60,0.032
325.80,0.032
326.00,0.032
326.20,0.032
326.40,0.032
326.60,0.032
326.80,0.032
327.00,0.032
327.20,0.032
327.40,0.032
327.60,0.032
327.80,0.032
328.00,0.032
328.20,0.032
328.40,0.032
328.60,0.033
328.80,0.032
329.00,0.032
329.20,0.032
329.40,0.032
329.60,0.032
329.80,0.032
330.00,0.032
330.20,0.032
330.40,0.032
330.60,0.032
330.80,0.032
331.00,0.033
331.20,0.033
331.40,0.033
331.60,0.033
331.80,0.033
332.00,0.033
332.20,0.033
332.40,0.033
332.60,0.033
332.80,0.033
333.00,0.033
333.20,0.033
333.40,0.033
333.60,0.033
333.80,0.033
334.00,0.033
334.20,0.034
334.40,0.034
334.60,0.034
334.80,0.034
335.00,0.034
335.20,0.034
335.40,0.034
335.60,0.034
335.80,0.034
336.00,0.034
336.20,0.034
336.40,0.034
336.60,0.034
336.80,0.034
337.00,0.034
337.20,0.034
337.40,0.035
337.60,0.035
337.80,0.035
338.00,0.035
338.20,0.035
338.40,0.035
338.60,0.035
338.80,0.035
339.00,0.035
339.20,0.035
339.40,0.035
339.60,0.035
339.80,0.035
340.00,0.035
340.20,0.036
340.40,0.036
340.60,0.036
340.80,0.036
341.00,0.036
341.20,0.036
341.40,0.036
341.60,0.036
341.80,0.036
342.00,0.036
342.20,0.037
342.40,0.037
342.60,0.036
342.80,0.036
343.00,0.036
343.20,0.036
343.40,0.036
343.60,0.036
343.80,0.036
344.00,0.036
344.20,0.036
344.40,0.037
344.60,0.037
344.80,0.037
345.00,0.037
345.20,0.037
345.40,0.037
345.60,0.037
345.80,0.038
346.00,0.038
346.20,0.038
346.40,0.038
346.60,0.038
346.80,0.038
347.00,0.038
347.20,0.038
347.40,0.039
347.60,0.038
347.80,0.039
348.00,0.039
348.20,0.039
348.40,0.039
348.60,0.039
348.80,0.039
349.00,0.039
349.20,0.039
349.40,0.039
349.60,0.039
349.80,0.040
350.00,0.040
350.20,0.040
350.40,0.040
350.60,0.039
350.80,0.040
351.00,0.040
351.20,0.040
351.40,0.039
351.60,0.039
351.80,0.039
352.00,0.039
352.20,0.040
352.40,0.040
352.60,0.040
352.80,0.040
353.00,0.040
353.20,0.040
353.40,0.040
353.60,0.040
353.80,0.041
354.00,0.040
354.20,0.040
354.40,0.041
354.60,0.041
354.80,0.041
355.00,0.041
355.20,0.041
355.40,0.041
355.60,0.041
355.80,0.041
356.00,0.041
356.20,0.041
356.40,0.041
356.60,0.041
356.80,0.042
357.00,0.042
357.20,0.042
357.40,0.042
357.60,0.042
357.80,0.042
358.00,0.042
358.20,0.042
358.40,0.042
358.60,0.042
358.80,0.042
359.00,0.042
359.20,0.042
359.40,0.042
359.60,0.043
359.80,0.043
360.00,0.043
360.20,0.043
360.40,0.043
360.60,0.043
360.80,0.043
361.00,0.044
361.20,0.044
361.40,0.044
361.60,0.044
361.80,0.044
362.00,0.044
362.20,0.043
362.40,0.043
362.60,0.043
362.80,0.044
363.00,0.044
363.20,0.044
363.40,0.044
363.60,0.044
363.80,0.044
364.00,0.044
364.20,0.044
364.40,0.044
364.60,0.045
364.80,0.045
365.00,0.045
365.20,0.045
365.40,0.045
365.60,0.045
365.80,0.045
366.00,0.045
366.20,0.046
366.40,0.045
366.60,0.045
366.80,0.045
367.00,0.046
367.20,0.045
367.40,0.045
367.60,0.045
367.80,0.046
368.00,0.046
368.20,0.046
368.40,0.046
368.60,0.046
368.80,0.046
369.00,0.047
369.20,0.046
369.40,0.046
369.60,0.047
369.80,0.047
370.00,0.047
370.20,0.047
370.40,0.047
370.60,0.047
370.80,0.047
371.00,0.047
371.20,0.047
371.40,0.047
371.60,0.047
371.80,0.048
372.00,0.048
372.20,0.048
372.40,0.048
372.60,0.048
372.80,0.048
373.00,0.048
373.20,0.048
373.40,0.048
373.60,0.048
373.80,0.048
374.00,0.048
374.20,0.049
374.40,0.049
374.60,0.049
374.80,0.049
375.00,0.049
375.20,0.049
375.40,0.050
375.60,0.050
375.80,0.050
376.00,0.050
376.20,0.050
376.40,0.050
376.60,0.051
376.80,0.050
377.00,0.051
377.20,0.051
377.40,0.051
377.60,0.051
377.80,0.051
378.00,0.051
378.20,0.051
378.40,0.051
378.60,0.051
378.80,0.051
379.00,0.051
379.20,0.051
379.40,0.051
379.60,0.051
379.80,0.051
380.00,0.051
380.20,0.051
380.40,0.052
380.60,0.052
380.80,0.052
381.00,0.052
381.20,0.052
381.40,0.052
381.60,0.052
381.80,0.052
382.00,0.052
382.20,0.053
382.40,0.053
382.60,0.053
382.80,0.053
383.00,0.053
383.20,0.053
383.40,0.053
383.60,0.053
383.80,0.054
384.00,0.054
384.20,0.054
384.40,0.054
384.60,0.054
384.80,0.054
385.00,0.054
385.20,0.054
385.40,0.054
385.60,0.054
385.80,0.054
386.00,0.054
386.20,0.054
386.40,0.055
386.60,0.055
386.80,0.055
387.00,0.055
387.20,0.055
387.40,0.055
387.60,0.055
387.80,0.055
388.00,0.055
388.20,0.055
388.40,0.055
388.60,0.055
388.80,0.055
389.00,0.055
389.20,0.055
389.40,0.056
389.60,0.056
389.80,0.056
390.00,0.056
390.20,0.056
390.40,0.056
390.60,0.056
390.80,0.057
391.00,0.057
391.20,0.057
391.40,0.057
391.60,0.057
391.80,0.057
392.00,0.057
392.20,0.057
392.40,0.057
392.60,0.057
392.80,0.057
393.00,0.057
393.20,0.058
393.40,0.058
393.60,0.058
393.80,0.058
394.00,0.058
394.20,0.058
394.40,0.058
394.60,0.058
394.80,0.058
395.00,0.059
395.20,0.059
395.40,0.059
395.60,0.059
395.80,0.059
396.00,0.059
396.20,0.059
396.40,0.059
396.60,0.059
396.80,0.059
397.00,0.059
397.20,0.059
397.40,0.060
397.60,0.060
397.80,0.060
398.00,0.060
398.20,0.060
398.40,0.060
398.60,0.060
398.80,0.060
399.00,0.060
399.20,0.060
399.40,0.060
399.60,0.060
399.80,0.061
400.00,0.061
400.20,0.061
400.40,0.061
400.60,0.061
400.80,0.061
401.00,0.061
401.20,0.062
401.40,0.062
401.60,0.062
401.80,0.062
402.00,0.062
402.20,0.062
402.40,0.062
402.60,0.062
402.80,0.063
403.00,0.063
403.20,0.063
403.40,0.063
403.60,0.063
403.80,0.063
404.00,0.063
404.20,0.063
404.40,0.063
404.60,0.063
404.80,0.063
405.00,0.063
405.20,0.064
405.40,0.064
405.60,0.064
405.80,0.064
406.00,0.064
406.20,0.064
406.40,0.064
406.60,0.064
406.80,0.064
407.00,0.065
407.20,0.065
407.40,0.065
407.60,0.065
407.80,0.065
408.00,0.065
408.20,0.065
408.40,0.065
408.60,0.066
408.80,0.066
409.00,0.066
409.20,0.066
409.40,0.066
409.60,0.066
409.80,0.066
410.00,0.066
410.20,0.066
410.40,0.066
410.60,0.066
410.80,0.066
411.00,0.067
411.20,0.066
411.40,0.067
411.60,0.067
411.80,0.067
412.00,0.067
412.20,0.067
412.40,0.067
412.60,0.067
412.80,0.067
413.00,0.067
413.20,0.067
413.40,0.067
413.60,0.067
413.80,0.067
414.00,0.068
414.20,0.068
414.40,0.068
414.60,0.068
414.80,0.068
415.00,0.068
415.20,0.068
415.40,0.068
415.60,0.069
415.80,0.069
416.00,0.069
416.20,0.069
416.40,0.069
416.60,0.069
416.80,0.070
417.00,0.070
417.20,0.070
417.40,0.070
417.60,0.070
417.80,0.071
418.00,0.071
418.20,0.071
418.40,0.071
418.60,0.072
418.80,0.072
419.00,0.072
419.20,0.072
419.40,0.073
419.60,0.073
419.80,0.073
420.00,0.073
420.20,0.073
420.40,0.074
420.60,0.074
420.80,0.074
421.00,0.074
421.20,0.074
421.40,0.075
421.60,0.075
421.80,0.075
422.00,0.075
422.20,0.076
422.40,0.076
422.60,0.076
422.80,0.076
423.00,0.076
423.20,0.077
423.40,0.077
423.60,0.077
423.80,0.078
424.00,0.078
424.20,0.078
424.40,0.078
424.60,0.079
424.80,0.079
425.00,0.079
425.20,0.079
425.40,0.080
425.60,0.080
425.80,0.080
426.00,0.080
426.20,0.081
426.40,0.081
426.60,0.081
426.80,0.081
427.00,0.082
427.20,0.082
427.40,0.082
427.60,0.083
427.80,0.083
428.00,0.083
428.20,0.084
428.40,0.084
428.60,0.084
428.80,0.085
429.00,0.085
429.20,0.085
429.40,0.085
429.60,0.086
429.80,0.086
430.00,0.086
430.20,0.087
430.40,0.087
430.60,0.087
430.80,0.087
431.00,0.088
431.20,0.088
431.40,0.088
431.60,0.089
431.80,0.089
432.00,0.089
432.20,0.090
432.40,0.090
432.60,0.090
432.80,0.090
433.00,0.091
433.20,0.091
433.40,0.091
433.60,0.092
433.80,0.092
434.00,0.092
434.20,0.092
434.40,0.093
434.60,0.093
434.80,0.093
435.00,0.094
435.20,0.094
435.40,0.094
435.60,0.095
435.80,0.095
436.00,0.095
436.20,0.096
436.40,0.096
436.60,0.096
436.80,0.097
437.00,0.097
437.20,0.097
437.40,0.098
437.60,0.098
437.80,0.098
438.00,0.099
438.20,0.099
438.40,0.099
438.60,0.099
438.80,0.100
439.00,0.100
439.20,0.100
439.40,0.101
439.60,0.101
439.80,0.101
440.00,0.101
440.20,0.102
440.40,0.102
440.60,0.102
440.80,0.103
441.00,0.103
441.20,0.103
441.40,0.104
441.60,0.104
441.80,0.104
442.00,0.104
442.20,0.105
442.40,0.105
442.60,0.105
442.80,0.106
443.00,0.106
443.20,0.106
443.40,0.107
443.60,0.107
443.80,0.107
444.00,0.108
444.20,0.108
444.40,0.108
444.60,0.108
444.80,0.109
445.00,0.109
445.20,0.110
445.40,0.110
445.60,0.110
445.80,0.110
446.00,0.110
446.20,0.111
446.40,0.111
446.60,0.111
446.80,0.111
447.00,0.112
447.20,0.112
447.40,0.112
447.60,0.112
447.80,0.112
448.00,0.113
448.20,0.113
448.40,0.113
448.60,0.113
448.80,0.114
449.00,0.114
449.20,0.114
449.40,0.114
449.60,0.115
449.80,0.115
450.00,0.115
450.20,0.115
450.40,0.116
450.60,0.116
450.80,0.116
451.00,0.117
451.20,0.117
451.40,0.117
451.60,0.117
451.80,0.118
452.00,0.118
452.20,0.118
452.40,0.118
452.60,0.118
452.80,0.119
453.00,0.119
453.20,0.119
453.40,0.119
453.60,0.119
453.80,0.119
454.00,0.119
454.20,0.120
454.40,0.120
454.60,0.120
454.80,0.120
455.00,0.120
455.20,0.120
455.40,0.120
455.60,0.121
455.80,0.121
456.00,0.121
456.20,0.121
456.40,0.121
456.60,0.121
456.80,0.121
457.00,0.121
457.20,0.121
457.40,0.122
457.60,0.122
457.80,0.122
458.00,0.122
458.20,0.122
458.40,0.122
458.60,0.122
458.80,0.123
459.00,0.122
459.20,0.122
459.40,0.123
459.60,0.123
459.80,0.123
460.00,0.123
460.20,0.123
460.40,0.123
460.60,0.123
460.80,0.123
461.00,0.124
461.20,0.123
461.40,0.123
461.60,0.124
461.80,0.123
462.00,0.123
462.20,0.123
462.40,0.123
462.60,0.123
462.80,0.123
463.00,0.122
463.20,0.122
463.40,0.122
463.60,0.122
463.80,0.122
464.00,0.122
464.20,0.122
464.40,0.122
464.60,0.121
464.80,0.121
465.00,0.121
465.20,0.120
465.40,0.120
465.60,0.120
465.80,0.120
466.00,0.119
466.20,0.119
466.40,0.119
466.60,0.119
466.80,0.119
467.00,0.118
467.20,0.118
467.40,0.118
467.60,0.118
467.80,0.117
468.00,0.117
468.20,0.117
468.40,0.116
468.60,0.116
468.80,0.116
469.00,0.115
469.20,0.115
469.40,0.115
469.60,0.114
469.80,0.114
470.00,0.114
470.20,0.113
470.40,0.113
470.60,0.113
470.80,0.112
471.00,0.112
471.20,0.111
471.40,0.111
471.60,0.111
471.80,0.110
472.00,0.110
472.20,0.110
472.40,0.109
472.60,0.109
472.80,0.109
473.00,0.108
473.20,0.108
473.40,0.108
473.60,0.107
473.80,0.107
474.00,0.106
474.20,0.106
474.40,0.106
474.60,0.105
474.80,0.105
475.00,0.104
475.20,0.104
475.40,0.103
475.60,0.103
475.80,0.103
476.00,0.102
476.20,0.102
476.40,0.101
476.60,0.101
476.80,0.100
477.00,0.100
477.20,0.099
477.40,0.099
477.60,0.098
477.80,0.098
478.00,0.097
478.20,0.097
478.40,0.097
478.60,0.096
478.80,0.096
479.00,0.095
479.20,0.095
479.40,0.094
479.60,0.094
479.80,0.093
480.00,0.093
480.20,0.093
480.40,0.092
480.60,0.092
480.80,0.091
481.00,0.091
481.20,0.090
481.40,0.090
481.60,0.089
481.80,0.089
482.00,0.088
482.20,0.088
482.40,0.087
482.60,0.087
482.80,0.086
483.00,0.086
483.20,0.085
483.40,0.085
483.60,0.084
483.80,0.084
484.00,0.083
484.20,0.083
484.40,0.082
484.60,0.081
484.80,0.081
485.00,0.080
485.20,0.080
485.40,0.079
485.60,0.078
485.80,0.078
486.00,0.077
486.20,0.077
486.40,0.076
486.60,0.076
486.80,0.075
487.00,0.074
487.20,0.074
487.40,0.073
487.60,0.073
487.80,0.072
488.00,0.072
488.20,0.071
488.40,0.071
488.60,0.070
488.80,0.070
489.00,0.069
489.20,0.069
489.40,0.068
489.60,0.068
489.80,0.067
490.00,0.067
490.20,0.066
490.40,0.066
490.60,0.065
490.80,0.065
491.00,0.064
491.20,0.063
491.40,0.063
491.60,0.062
491.80,0.062
492.00,0.061
492.20,0.061
492.40,0.060
492.60,0.059
492.80,0.059
493.00,0.058
493.20,0.058
493.40,0.057
493.60,0.057
493.80,0.056
494.00,0.056
494.20,0.055
494.40,0.055
494.60,0.054
494.80,0.054
495.00,0.053
495.20,0.053
495.40,0.052
495.60,0.052
495.80,0.051
496.00,0.051
496.20,0.050
496.40,0.050
496.60,0.050
496.80,0.049
497.00,0.049
497.20,0.048
497.40,0.048
497.60,0.047
497.80,0.047
498.00,0.046
498.20,0.046
498.40,0.045
498.60,0.045
498.80,0.044
499.00,0.044
499.20,0.044
499.40,0.043
499.60,0.043
499.80,0.042
500.00,0.042
500.20,0.041
500.40,0.041
500.60,0.041
500.80,0.040
501.00,0.040
501.20,0.039
501.40,0.039
501.60,0.038
501.80,0.038
502.00,0.038
502.20,0.037
502.40,0.037
502.60,0.037
502.80,0.036
503.00,0.036
503.20,0.035
503.40,0.035
503.60,0.035
503.80,0.034
504.00,0.034
504.20,0.034
504.40,0.033
504.60,0.033
504.80,0.033
505.00,0.032
505.20,0.032
505.40,0.032
505.60,0.032
505.80,0.031
506.00,0.031
506.20,0.031
506.40,0.030
506.60,0.030
506.80,0.030
507.00,0.029
507.20,0.029
507.40,0.029
507.60,0.029
507.80,0.028
508.00,0.028
508.20,0.028
508.40,0.027
508.60,0.027
508.80,0.027
509.00,0.027
509.20,0.026
509.40,0.026
509.60,0.026
509.80,0.025
510.00,0.025
510.20,0.025
510.40,0.025
510.60,0.025
510.80,0.024
511.00,0.024
511.20,0.024
511.40,0.024
511.60,0.024
511.80,0.023
512.00,0.023
512.20,0.023
512.40,0.023
512.60,0.022
512.80,0.022
513.00,0.022
513.20,0.022
513.40,0.022
513.60,0.022
513.80,0.021
514.00,0.021
514.20,0.021
514.40,0.021
514.60,0.021
514.80,0.021
515.00,0.020
515.20,0.020
515.40,0.020
515.60,0.020
515.80,0.020
516.00,0.020
516.20,0.020
516.40,0.019
516.60,0.019
516.80,0.019
517.00,0.019
517.20,0.019
517.40,0.019
517.60,0.018
517.80,0.018
518.00,0.018
518.20,0.018
518.40,0.018
518.60,0.018
518.80,0.018
519.00,0.018
519.20,0.018
519.40,0.017
519.60,0.017
519.80,0.017
520.00,0.017
520.20,0.017
520.40,0.017
520.60,0.017
520.80,0.017
521.00,0.017
521.20,0.016
521.40,0.016
521.60,0.016
521.80,0.016
522.00,0.016
522.20,0.016
522.40,0.016
522.60,0.016
522.80,0.016
523.00,0.016
523.20,0.016
523.40,0.015
523.60,0.015
523.80,0.015
524.00,0.015
524.20,0.015
524.40,0.015
524.60,0.015
524.80,0.015
525.00,0.015
525.20,0.015
525.40,0.015
525.60,0.015
525.80,0.014
526.00,0.014
526.20,0.014
526.40,0.014
526.60,0.014
526.80,0.014
527.00,0.014
527.20,0.014
527.40,0.014
527.60,0.014
527.80,0.014
528.00,0.014
528.20,0.014
528.40,0.014
528.60,0.014
528.80,0.014
529.00,0.014
529.20,0.014
529.40,0.014
529.60,0.014
529.80,0.014
530.00,0.014
530.20,0.014
530.40,0.014
530.60,0.014
530.80,0.014
531.00,0.014
531.20,0.014
531.40,0.014
531.60,0.014
531.80,0.014
532.00,0.014
532.20,0.014
532.40,0.014
532.60,0.014
532.80,0.014
533.00,0.014
533.20,0.014
533.40,0.014
533.60,0.013
533.80,0.013
534.00,0.013
534.20,0.013
534.40,0.013
534.60,0.013
534.80,0.013
535.00,0.013
535.20,0.013
535.40,0.013
535.60,0.013
535.80,0.013
536.00,0.013
536.20,0.013
536.40,0.013
536.60,0.013
536.80,0.013
537.00,0.013
537.20,0.013
537.40,0.013
537.60,0.013
537.80,0.013
538.00,0.013
538.20,0.013
538.40,0.013
538.60,0.013
538.80,0.013
539.00,0.013
539.20,0.013
539.40,0.013
539.60,0.013
539.80,0.013
540.00,0.012
540.20,0.012
540.40,0.012
540.60,0.012
540.80,0.012
541.00,0.012
541.20,0.012
541.40,0.012
541.60,0.012
541.80,0.012
542.00,0.012
542.20,0.012
542.40,0.012
542.60,0.012
542.80,0.012
543.00,0.012
543.20,0.012
543.40,0.012
543.60,0.012
543.80,0.012
544.00,0.012
544.20,0.012
544.40,0.012
544.60,0.012
544.80,0.012
545.00,0.012
545.20,0.012
545.40,0.012
545.60,0.012
545.80,0.012
546.00,0.012
546.20,0.012
546.40,0.012
546.60,0.012
546.80,0.012
547.00,0.012
547.20,0.012
547.40,0.012
547.60,0.012
547.80,0.012
548.00,0.012
548.20,0.012
548.40,0.012
548.60,0.012
548.80,0.012
549.00,0.012
549.20,0.012
549.40,0.012
549.60,0.012
549.80,0.012
550.00,0.012
550.20,0.012
550.40,0.011
550.60,0.012
550.80,0.012
551.00,0.012
551.20,0.012
551.40,0.012
551.60,0.012
551.80,0.012
552.00,0.012
552.20,0.012
552.40,0.012
552.60,0.012
552.80,0.012
553.00,0.012
553.20,0.012
553.40,0.012
553.60,0.012
553.80,0.011
554.00,0.011
554.20,0.012
554.40,0.011
554.60,0.011
554.80,0.011
555.00,0.012
555.20,0.012
555.40,0.012
555.60,0.012
555.80,0.012
556.00,0.012
556.20,0.012
556.40,0.012
556.60,0.012
556.80,0.012
557.00,0.012
557.20,0.012
557.40,0.012
557.60,0.012
557.80,0.011
558.00,0.011
558.20,0.011
558.40,0.011
558.60,0.011
558.80,0.012
559.00,0.012
559.20,0.011
559.40,0.012
559.60,0.012
559.80,0.012
560.00,0.012
560.20,0.012
560.40,0.011
560.60,0.011
560.80,0.012
561.00,0.012
561.20,0.012
561.40,0.012
561.60,0.012
561.80,0.012
562.00,0.011
562.20,0.011
562.40,0.012
562.60,0.011
562.80,0.011
563.00,0.012
563.20,0.012
563.40,0.011
563.60,0.011
563.80,0.011
564.00,0.011
564.20,0.011
564.40,0.011
564.60,0.011
564.80,0.011
565.00,0.011
565.20,0.011
565.40,0.011
565.60,0.011
565.80,0.011
566.00,0.011
566.20,0.011
566.40,0.011
566.60,0.011
566.80,0.011
567.00,0.011
567.20,0.011
567.40,0.011
567.60,0.011
567.80,0.011
568.00,0.011
568.20,0.011
568.40,0.011
568.60,0.011
568.80,0.011
569.00,0.011
569.20,0.011
569.40,0.011
569.60,0.011
569.80,0.011
570.00,0.011
570.20,0.011
570.40,0.011
570.60,0.011
570.80,0.011
571.00,0.011
571.20,0.011
571.40,0.011
571.60,0.011
571.80,0.011
572.00,0.011
572.20,0.011
572.40,0.011
572.60,0.011
572.80,0.011
573.00,0.011
573.20,0.011
573.40,0.011
573.60,0.011
573.80,0.011
574.00,0.011
574.20,0.011
574.40,0.011
574.60,0.011
574.80,0.011
575.00,0.011
575.20,0.011
575.40,0.011
575.60,0.011
575.80,0.011
576.00,0.011
576.20,0.011
576.40,0.011
576.60,0.011
576.80,0.011
577.00,0.011
577.20,0.011
577.40,0.011
577.60,0.011
577.80,0.011
578.00,0.011
578.20,0.011
578.40,0.011
578.60,0.011
578.80,0.011
579.00,0.011
579.20,0.011
579.40,0.011
579.60,0.011
579.80,0.011
580.00,0.011
580.20,0.011
580.40,0.011
580.60,0.011
580.80,0.011
581.00,0.011
581.20,0.011
581.40,0.011
581.60,0.011
581.80,0.011
582.00,0.011
582.20,0.011
582.40,0.011
582.60,0.011
582.80,0.010
583.00,0.010
583.20,0.010
583.40,0.010
583.60,0.010
583.80,0.010
584.00,0.010
584.20,0.010
584.40,0.011
584.60,0.011
584.80,0.011
585.00,0.011
585.20,0.011
585.40,0.011
585.60,0.011
585.80,0.011
586.00,0.011
586.20,0.011
586.40,0.011
586.60,0.011
586.80,0.011
587.00,0.011
587.20,0.011
587.40,0.011
587.60,0.011
587.80,0.011
588.00,0.011
588.20,0.011
588.40,0.011
588.60,0.011
588.80,0.011
589.00,0.011
589.20,0.011
589.40,0.011
589.60,0.011
589.80,0.011
590.00,0.011
590.20,0.011
590.40,0.011
590.60,0.011
590.80,0.011
591.00,0.011
591.20,0.011
591.40,0.011
591.60,0.011
591.80,0.010
592.00,0.010
592.20,0.010
592.40,0.010
592.60,0.010
592.80,0.010
593.00,0.010
593.20,0.011
593.40,0.011
593.60,0.011
593.80,0.011
594.00,0.011
594.20,0.011
594.40,0.011
594.60,0.011
594.80,0.011
595.00,0.011
595.20,0.011
595.40,0.011
595.60,0.011
595.80,0.011
596.00,0.011
596.20,0.011
596.40,0.011
596.60,0.011
596.80,0.011
597.00,0.011
597.20,0.011
597.40,0.011
597.60,0.011
597.80,0.011
598.00,0.011
598.20,0.011
598.40,0.011
598.60,0.011
598.80,0.011
599.00,0.011
599.20,0.011
599.40,0.011
599.60,0.011
599.80,0.010
600.00,0.010
600.20,0.010
600.40,0.010
600.60,0.011
600.80,0.011
601.00,0.011
601.20,0.011
601.40,0.011
601.60,0.011
601.80,0.011
602.00,0.011
602.20,0.011
602.40,0.011
602.60,0.011
602.80,0.011
603.00,0.011
603.20,0.011
603.40,0.011
603.60,0.011
603.80,0.011
604.00,0.010
604.20,0.011
604.40,0.011
604.60,0.011
604.80,0.011
605.00,0.011
605.20,0.011
605.40,0.011
605.60,0.011
605.80,0.010
606.00,0.010
606.20,0.010
606.40,0.010
606.60,0.010
606.80,0.010
607.00,0.010
607.20,0.010
607.40,0.010
607.60,0.010
607.80,0.010
608.00,0.010
608.20,0.010
608.40,0.010
608.60,0.010
608.80,0.010
609.00,0.011
609.20,0.010
609.40,0.010
609.60,0.010
609.80,0.010
610.00,0.010
610.20,0.010
610.40,0.010
610.60,0.010
610.80,0.010
611.00,0.010
611.20,0.010
611.40,0.010
611.60,0.010
611.80,0.011
612.00,0.011
612.20,0.011
612.40,0.011
612.60,0.011
612.80,0.011
613.00,0.011
613.20,0.011
613.40,0.011
613.60,0.011
613.80,0.011
614.00,0.011
614.20,0.011
614.40,0.010
614.60,0.010
614.80,0.011
615.00,0.010
615.20,0.010
615.40,0.010
615.60,0.010
615.80,0.010
616.00,0.010
616.20,0.010
616.40,0.010
616.60,0.011
616.80,0.010
617.00,0.011
617.20,0.011
617.40,0.010
617.60,0.010
617.80,0.010
618.00,0.010
618.20,0.010
618.40,0.010
618.60,0.010
618.80,0.010
619.00,0.010
619.20,0.010
619.40,0.010
619.60,0.010
619.80,0.010
620.00,0.010
620.20,0.010
620.40,0.010
620.60,0.010
620.80,0.011
621.00,0.010
621.20,0.010
621.40,0.010
621.60,0.010
621.80,0.010
622.00,0.010
622.20,0.010
622.40,0.010
622.60,0.010
622.80,0.010
623.00,0.010
623.20,0.010
623.40,0.010
623.60,0.010
623.80,0.010
624.00,0.010
624.20,0.010
624.40,0.010
624.60,0.010
624.80,0.010
625.00,0.010
625.20,0.010
625.40,0.010
625.60,0.010
625.80,0.010
626.00,0.010
626.20,0.010
626.40,0.010
626.60,0.010
626.80,0.010
627.00,0.010
627.20,0.010
627.40,0.010
627.60,0.010
627.80,0.010
628.00,0.010
628.20,0.010
628.40,0.010
628.60,0.010
628.80,0.010
629.00,0.010
629.20,0.010
629.40,0.010
629.60,0.010
629.80,0.010
630.00,0.010
630.20,0.010
630.40,0.010
630.60,0.010
630.80,0.010
631.00,0.010
631.20,0.010
631.40,0.010
631.60,0.010
631.80,0.010
632.00,0.010
632.20,0.010
632.40,0.010
632.60,0.010
632.80,0.010
633.00,0.010
633.20,0.010
633.40,0.010
633.60,0.010
633.80,0.010
634.00,0.010
634.20,0.010
634.40,0.010
634.60,0.010
634.80,0.010
635.00,0.010
635.20,0.010
635.40,0.010
635.60,0.010
635.80,0.010
636.00,0.010
636.20,0.010
636.40,0.010
636.60,0.010
636.80,0.010
637.00,0.010
637.20,0.010
637.40,0.010
637.60,0.010
637.80,0.010
638.00,0.010
638.20,0.010
638.40,0.010
638.60,0.010
638.80,0.010
639.00,0.010
639.20,0.010
639.40,0.010
639.60,0.010
639.80,0.011
640.00,0.011
640.20,0.010
640.40,0.011
640.60,0.011
640.80,0.010
641.00,0.010
641.20,0.010
641.40,0.010
641.60,0.010
641.80,0.010
642.00,0.010
642.20,0.010
642.40,0.010
642.60,0.010
642.80,0.010
643.00,0.010
643.20,0.010
643.40,0.010
643.60,0.010
643.80,0.010
644.00,0.010
644.20,0.010
644.40,0.010
644.60,0.010
644.80,0.010
645.00,0.010
645.20,0.010
645.40,0.010
645.60,0.010
645.80,0.010
646.00,0.010
646.20,0.010
646.40,0.010
646.60,0.010
646.80,0.010
647.00,0.010
647.20,0.010
647.40,0.010
647.60,0.010
647.80,0.010
648.00,0.010
648.20,0.010
648.40,0.010
648.60,0.010
648.80,0.010
649.00,0.010
649.20,0.010
649.40,0.010
649.60,0.010
649.80,0.010
650.00,0.010