"pba-14v-2"
"Wavelength nm.","Abs."
190.00,0.182
190.20,0.183
190.40,0.184
190.60,0.185
190.80,0.185
191.00,0.187
191.20,0.187
191.40,0.189
191.60,0.189
191.80,0.190
192.00,0.190
192.20,0.190
192.40,0.191
192.60,0.190
192.80,0.191
193.00,0.191
193.20,0.191
193.40,0.192
193.60,0.192
193.80,0.194
194.00,0.194
194.20,0.195
194.40,0.197
194.60,0.198
194.80,0.198
195.00,0.199
195.20,0.202
195.40,0.203
195.60,0.204
195.80,0.205
196.00,0.206
196.20,0.206
196.40,0.206
196.60,0.207
196.80,0.207
197.00,0.207
197.20,0.207
197.40,0.208
197.60,0.209
197.80,0.209
198.00,0.209
198.20,0.209
198.40,0.210
198.60,0.210
198.80,0.211
199.00,0.211
199.20,0.212
199.40,0.212
199.60,0.212
199.80,0.212
200.00,0.212
200.20,0.213
200.40,0.213
200.60,0.213
200.80,0.213
201.00,0.213
201.20,0.213
201.40,0.213
201.60,0.214
201.80,0.214
202.00,0.214
202.20,0.215
202.40,0.215
202.60,0.215
202.80,0.215
203.00,0.215
203.20,0.216
203.40,0.216
203.60,0.216
203.80,0.215
204.00,0.216
204.20,0.215
204.40,0.215
204.60,0.215
204.80,0.214
205.00,0.214
205.20,0.214
205.40,0.213
205.60,0.213
205.80,0.213
206.00,0.212
206.20,0.212
206.40,0.211
206.60,0.211
206.80,0.211
207.00,0.210
207.20,0.210
207.40,0.210
207.60,0.209
207.80,0.209
208.00,0.208
208.20,0.207
208.40,0.207
208.60,0.207
208.80,0.206
209.00,0.205
209.20,0.205
209.40,0.204
209.60,0.203
209.80,0.203
210.00,0.202
210.20,0.201
210.40,0.200
210.60,0.199
210.80,0.198
211.00,0.198
211.20,0.196
211.40,0.195
211.60,0.194
211.80,0.193
212.00,0.192
212.20,0.191
212.40,0.190
212.60,0.189
212.80,0.188
213.00,0.187
213.20,0.186
213.40,0.185
213.60,0.184
213.80,0.184
214.00,0.182
214.20,0.181
214.40,0.180
214.60,0.179
214.80,0.178
215.00,0.177
215.20,0.176
215.40,0.175
215.60,0.174
215.80,0.173
216.00,0.172
216.20,0.170
216.40,0.169
216.60,0.168
216.80,0.167
217.00,0.166
217.20,0.165
217.40,0.164
217.60,0.163
217.80,0.162
218.00,0.160
218.20,0.159
218.40,0.159
218.60,0.157
218.80,0.156
219.00,0.155
219.20,0.155
219.40,0.153
219.60,0.152
219.80,0.151
220.00,0.150
220.20,0.149
220.40,0.148
220.60,0.147
220.80,0.146
221.00,0.145
221.20,0.144
221.40,0.143
221.60,0.143
221.80,0.142
222.00,0.141
222.20,0.140
222.40,0.139
222.60,0.138
222.80,0.137
223.00,0.136
223.20,0.136
223.40,0.135
223.60,0.134
223.80,0.133
224.00,0.132
224.20,0.131
224.40,0.130
224.60,0.129
224.80,0.129
225.00,0.128
225.20,0.127
225.40,0.127
225.60,0.126
225.80,0.125
226.00,0.125
226.20,0.124
226.40,0.124
226.60,0.123
226.80,0.123
227.00,0.122
227.20,0.122
227.40,0.122
227.60,0.121
227.80,0.121
228.00,0.120
228.20,0.119
228.40,0.119
228.60,0.119
228.80,0.118
229.00,0.118
229.20,0.117
229.40,0.117
229.60,0.117
229.80,0.117
230.00,0.116
230.20,0.116
230.40,0.115
230.60,0.115
230.80,0.115
231.00,0.115
231.20,0.114
231.40,0.114
231.60,0.114
231.80,0.114
232.00,0.113
232.20,0.113
232.40,0.113
232.60,0.113
232.80,0.113
233.00,0.113
233.20,0.113
233.40,0.113
233.60,0.113
233.80,0.113
234.00,0.113
234.20,0.113
234.40,0.113
234.60,0.113
234.80,0.114
235.00,0.114
235.20,0.114
235.40,0.114
235.60,0.114
235.80,0.114
236.00,0.115
236.20,0.115
236.40,0.115
236.60,0.115
236.80,0.115
237.00,0.116
237.20,0.116
237.40,0.116
237.60,0.116
237.80,0.116
238.00,0.117
238.20,0.117
238.40,0.117
238.60,0.118
238.80,0.118
239.00,0.118
239.20,0.119
239.40,0.119
239.60,0.119
239.80,0.120
240.00,0.120
240.20,0.120
240.40,0.121
240.60,0.121
240.80,0.121
241.00,0.122
241.20,0.122
241.40,0.122
241.60,0.123
241.80,0.123
242.00,0.123
242.20,0.124
242.40,0.124
242.60,0.125
242.80,0.125
243.00,0.125
243.20,0.126
243.40,0.126
243.60,0.127
243.80,0.127
244.00,0.127
244.20,0.128
244.40,0.128
244.60,0.128
244.80,0.129
245.00,0.129
245.20,0.130
245.40,0.130
245.60,0.130
245.80,0.131
246.00,0.131
246.20,0.131
246.40,0.132
246.60,0.132
246.80,0.133
247.00,0.133
247.20,0.133
247.40,0.134
247.60,0.134
247.80,0.134
248.00,0.134
248.20,0.135
248.40,0.135
248.60,0.135
248.80,0.136
249.00,0.136
249.20,0.136
249.40,0.137
249.60,0.137
249.80,0.137
250.00,0.137
250.20,0.137
250.40,0.138
250.60,0.138
250.80,0.138
251.00,0.138
251.20,0.139
251.40,0.139
251.60,0.139
251.80,0.139
252.00,0.139
252.20,0.139
252.40,0.140
252.60,0.140
252.80,0.140
253.00,0.140
253.20,0.140
253.40,0.140
253.60,0.141
253.80,0.141
254.00,0.141
254.20,0.141
254.40,0.141
254.60,0.141
254.80,0.141
255.00,0.142
255.20,0.142
255.40,0.142
255.60,0.142
255.80,0.142
256.00,0.142
256.20,0.142
256.40,0.142
256.60,0.142
256.80,0.142
257.00,0.142
257.20,0.142
257.40,0.142
257.60,0.142
257.80,0.142
258.00,0.142
258.20,0.142
258.40,0.142
258.60,0.142
258.80,0.142
259.00,0.142
259.20,0.142
259.40,0.142
259.60,0.142
259.80,0.142
260.00,0.142
260.20,0.142
260.40,0.142
260.60,0.142
260.80,0.141
261.00,0.141
261.20,0.141
261.40,0.141
261.60,0.141
261.80,0.141
262.00,0.141
262.20,0.141
262.40,0.141
262.60,0.141
262.80,0.141
263.00,0.141
263.20,0.140
263.40,0.140
263.60,0.140
263.80,0.140
264.00,0.140
264.20,0.140
264.40,0.139
264.60,0.139
264.80,0.139
265.00,0.139
265.20,0.139
265.40,0.139
265.60,0.138
265.80,0.138
266.00,0.138
266.20,0.138
266.40,0.137
266.60,0.137
266.80,0.137
267.00,0.137
267.20,0.136
267.40,0.136
267.60,0.136
267.80,0.135
268.00,0.135
268.20,0.135
268.40,0.134
268.60,0.134
268.80,0.134
269.00,0.133
269.20,0.133
269.40,0.133
269.60,0.132
269.80,0.132
270.00,0.132
270.20,0.131
270.40,0.131
270.60,0.131
270.80,0.130
271.00,0.130
271.20,0.130
271.40,0.129
271.60,0.129
271.80,0.128
272.00,0.128
272.20,0.127
272.40,0.127
272.60,0.126
272.80,0.126
273.00,0.126
273.20,0.125
273.40,0.125
273.60,0.124
273.80,0.123
274.00,0.123
274.20,0.123
274.40,0.122
274.60,0.122
274.80,0.122
275.00,0.121
275.20,0.121
275.40,0.120
275.60,0.120
275.80,0.119
276.00,0.119
276.20,0.118
276.40,0.118
276.60,0.117
276.80,0.117
277.00,0.116
277.20,0.116
277.40,0.115
277.60,0.115
277.80,0.114
278.00,0.114
278.20,0.113
278.40,0.113
278.60,0.112
278.80,0.112
279.00,0.111
279.20,0.111
279.40,0.110
279.60,0.109
279.80,0.109
280.00,0.108
280.20,0.108
280.40,0.107
280.60,0.107
280.80,0.106
281.00,0.105
281.20,0.105
281.40,0.104
281.60,0.104
281.80,0.103
282.00,0.102
282.20,0.102
282.40,0.102
282.60,0.101
282.80,0.100
283.00,0.100
283.20,0.099
283.40,0.099
283.60,0.098
283.80,0.097
284.00,0.097
284.20,0.096
284.40,0.096
284.60,0.095
284.80,0.094
285.00,0.094
285.20,0.094
285.40,0.093
285.60,0.092
285.80,0.092
286.00,0.091
286.20,0.091
286.40,0.090
286.60,0.090
286.80,0.089
287.00,0.088
287.20,0.088
287.40,0.087
287.60,0.087
287.80,0.086
288.00,0.085
288.20,0.085
288.40,0.084
288.60,0.083
288.80,0.083
289.00,0.082
289.20,0.082
289.40,0.081
289.60,0.081
289.80,0.080
290.00,0.079
290.20,0.079
290.40,0.078
290.60,0.078
290.80,0.077
291.00,0.077
291.20,0.076
291.40,0.075
291.60,0.075
291.80,0.074
292.00,0.074
292.20,0.073
292.40,0.072
292.60,0.072
292.80,0.071
293.00,0.071
293.20,0.070
293.40,0.070
293.60,0.069
293.80,0.068
294.00,0.068
294.20,0.067
294.40,0.067
294.60,0.066
294.80,0.066
295.00,0.065
295.20,0.065
295.40,0.064
295.60,0.064
295.80,0.063
296.00,0.063
296.20,0.062
296.40,0.061
296.60,0.061
296.80,0.060
297.00,0.060
297.20,0.059
297.40,0.059
297.60,0.058
297.80,0.058
298.00,0.057
298.20,0.057
298.40,0.056
298.60,0.056
298.80,0.055
299.00,0.055
299.20,0.054
299.40,0.054
299.60,0.053
299.80,0.053
300.00,0.052
300.20,0.052
300.40,0.051
300.60,0.051
300.80,0.050
301.00,0.050
301.20,0.049
301.40,0.049
301.60,0.048
301.80,0.048
302.00,0.047
302.20,0.047
302.40,0.047
302.60,0.046
302.80,0.046
303.00,0.045
303.20,0.045
303.40,0.045
303.60,0.044
303.80,0.044
304.00,0.044
304.20,0.044
304.40,0.043
304.60,0.043
304.80,0.043
305.00,0.042
305.20,0.042
305.40,0.042
305.60,0.042
305.80,0.041
306.00,0.041
306.20,0.041
306.40,0.041
306.60,0.040
306.80,0.040
307.00,0.040
307.20,0.040
307.40,0.039
307.60,0.039
307.80,0.039
308.00,0.039
308.20,0.038
308.40,0.038
308.60,0.038
308.80,0.037
309.00,0.037
309.20,0.037
309.40,0.037
309.60,0.037
309.80,0.036
310.00,0.036
310.20,0.036
310.40,0.036
310.60,0.036
310.80,0.035
311.00,0.035
311.20,0.035
311.40,0.035
311.60,0.035
311.80,0.035
312.00,0.035
312.20,0.035
312.40,0.034
312.60,0.034
312.80,0.034
313.00,0.034
313.20,0.034
313.40,0.034
313.60,0.034
313.80,0.034
314.00,0.033
314.20,0.033
314.40,0.033
314.60,0.033
314.80,0.033
315.00,0.033
315.20,0.033
315.40,0.033
315.60,0.033
315.80,0.032
316.00,0.032
316.20,0.033
316.40,0.032
316.60,0.033
316.80,0.033
317.00,0.032
317.20,0.032
317.40,0.032
317.60,0.032
317.80,0.032
318.00,0.032
318.20,0.032
318.40,0.032
318.60,0.032
318.80,0.031
319.00,0.031
319.20,0.031
319.40,0.031
319.60,0.031
319.80,0.031
320.00,0.031
320.20,0.031
320.40,0.031
320.60,0.031
320.80,0.031
321.00,0.031
321.20,0.031
321.40,0.031
321.60,0.031
321.80,0.031
322.00,0.031
322.20,0.031
322.40,0.031
322.60,0.031
322.80,0.031
323.00,0.031
323.20,0.031
323.40,0.031
323.60,0.031
323.80,0.031
324.00,0.031
324.20,0.031
324.40,0.031
324.60,0.031
324.80,0.031
325.00,0.031
325.20,0.031
325.40,0.030
325.60,0.030
325.80,0.030
326.00,0.030
326.20,0.030
326.40,0.030
326.60,0.030
326.80,0.030
327.00,0.030
327.20,0.030
327.40,0.030
327.60,0.030
327.80,0.030
328.00,0.030
328.20,0.030
328.40,0.030
328.60,0.030
328.80,0.030
329.00,0.030
329.20,0.030
329.40,0.030
329.60,0.030
329.80,0.030
330.00,0.030
330.20,0.030
330.40,0.030
330.60,0.031
330.80,0.031
331.00,0.031
331.20,0.031
331.40,0.031
331.60,0.031
331.80,0.031
332.00,0.031
332.20,0.031
332.40,0.031
332.60,0.031
332.80,0.032
333.00,0.032
333.20,0.031
333.40,0.032
333.60,0.032
333.80,0.031
334.00,0.032
334.20,0.032
334.40,0.031
334.60,0.031
334.80,0.031
335.00,0.031
335.20,0.031
335.40,0.031
335.60,0.031
335.80,0.031
336.00,0.031
336.20,0.032
336.40,0.032
336.60,0.032
336.80,0.032
337.00,0.032
337.20,0.032
337.40,0.032
337.60,0.032
337.80,0.032
338.00,0.032
338.20,0.032
338.40,0.032
338.60,0.032
338.80,0.032
339.00,0.032
339.20,0.032
339.40,0.032
339.60,0.032
339.80,0.032
340.00,0.032
340.20,0.032
340.40,0.033
340.60,0.033
340.80,0.033
341.00,0.033
341.20,0.033
341.40,0.033
341.60,0.033
341.80,0.033
342.00,0.033
342.20,0.033
342.40,0.033
342.60,0.033
342.80,0.033
343.00,0.034
343.20,0.034
343.40,0.033
343.60,0.034
343.80,0.034
344.00,0.034
344.20,0.034
344.40,0.034
344.60,0.034
344.80,0.034
345.00,0.035
345.20,0.035
345.40,0.034
345.60,0.035
345.80,0.035
346.00,0.035
346.20,0.035
346.40,0.035
346.60,0.036
346.80,0.036
347.00,0.036
347.20,0.036
347.40,0.036
347.60,0.036
347.80,0.036
348.00,0.036
348.20,0.036
348.40,0.035
348.60,0.035
348.80,0.035
349.00,0.036
349.20,0.036
349.40,0.036
349.60,0.036
349.80,0.036
350.00,0.036
350.20,0.036
350.40,0.036
350.60,0.036
350.80,0.036
351.00,0.036
351.20,0.036
351.40,0.036
351.60,0.037
351.80,0.037
352.00,0.037
352.20,0.037
352.40,0.037
352.60,0.037
352.80,0.037
353.00,0.038
353.20,0.038
353.40,0.038
353.60,0.038
353.80,0.038
354.00,0.038
354.20,0.037
354.40,0.037
354.60,0.037
354.80,0.037
355.00,0.038
355.20,0.038
355.40,0.038
355.60,0.038
355.80,0.038
356.00,0.038
356.20,0.038
356.40,0.038
356.60,0.038
356.80,0.038
357.00,0.038
357.20,0.038
357.40,0.039
357.60,0.039
357.80,0.039
358.00,0.039
358.20,0.039
358.40,0.039
358.60,0.039
358.80,0.039
359.00,0.039
359.20,0.039
359.40,0.039
359.60,0.039
359.80,0.039
360.00,0.039
360.20,0.039
360.40,0.040
360.60,0.040
360.80,0.040
361.00,0.040
361.20,0.040
361.40,0.040
361.60,0.040
361.80,0.040
362.00,0.040
362.20,0.040
362.40,0.040
362.60,0.040
362.80,0.041
363.00,0.041
363.20,0.041
363.40,0.041
363.60,0.041
363.80,0.041
364.00,0.041
364.20,0.041
364.40,0.041
364.60,0.041
364.80,0.041
365.00,0.041
365.20,0.042
365.40,0.042
365.60,0.042
365.80,0.042
366.00,0.042
366.20,0.042
366.40,0.042
366.60,0.042
366.80,0.042
367.00,0.042
367.20,0.042
367.40,0.043
367.60,0.043
367.80,0.043
368.00,0.043
368.20,0.043
368.40,0.044
368.60,0.043
368.80,0.043
369.00,0.044
369.20,0.044
369.40,0.044
369.60,0.045
369.80,0.044
370.00,0.044
370.20,0.044
370.40,0.045
370.60,0.045
370.80,0.045
371.00,0.045
371.20,0.045
371.40,0.045
371.60,0.045
371.80,0.045
372.00,0.046
372.20,0.045
372.40,0.046
372.60,0.046
372.80,0.046
373.00,0.045
373.20,0.046
373.40,0.046
373.60,0.046
373.80,0.046
374.00,0.046
374.20,0.046
374.40,0.046
374.60,0.047
374.80,0.047
375.00,0.047
375.20,0.047
375.40,0.047
375.60,0.048
375.80,0.047
376.00,0.047
376.20,0.048
376.40,0.048
376.60,0.048
376.80,0.048
377.00,0.048
377.20,0.048
377.40,0.048
377.60,0.048
377.80,0.049
378.00,0.049
378.20,0.049
378.40,0.049
378.60,0.049
378.80,0.049
379.00,0.049
379.20,0.049
379.40,0.050
379.60,0.050
379.80,0.050
380.00,0.050
380.20,0.050
380.40,0.050
380.60,0.050
380.80,0.050
381.00,0.050
381.20,0.050
381.40,0.050
381.60,0.050
381.80,0.051
382.00,0.051
382.20,0.051
382.40,0.051
382.60,0.051
382.80,0.051
383.00,0.052
383.20,0.052
383.40,0.052
383.60,0.052
383.80,0.052
384.00,0.052
384.20,0.052
384.40,0.052
384.60,0.053
384.80,0.053
385.00,0.053
385.20,0.053
385.40,0.053
385.60,0.053
385.80,0.053
386.00,0.053
386.20,0.053
386.40,0.053
386.60,0.053
386.80,0.053
387.00,0.053
387.20,0.053
387.40,0.054
387.60,0.054
387.80,0.054
388.00,0.054
388.20,0.054
388.40,0.054
388.60,0.054
388.80,0.054
389.00,0.054
389.20,0.055
389.40,0.055
389.60,0.055
389.80,0.055
390.00,0.055
390.20,0.055
390.40,0.056
390.60,0.056
390.80,0.056
391.00,0.056
391.20,0.056
391.40,0.056
391.60,0.057
391.80,0.057
392.00,0.057
392.20,0.057
392.40,0.057
392.60,0.057
392.80,0.057
393.00,0.058
393.20,0.058
393.40,0.058
393.60,0.058
393.80,0.058
394.00,0.058
394.20,0.058
394.40,0.058
394.60,0.059
394.80,0.059
395.00,0.059
395.20,0.059
395.40,0.059
395.60,0.059
395.80,0.059
396.00,0.059
396.20,0.059
396.40,0.059
396.60,0.059
396.80,0.060
397.00,0.060
397.20,0.060
397.40,0.060
397.60,0.060
397.80,0.060
398.00,0.060
398.20,0.060
398.40,0.061
398.60,0.061
398.80,0.061
399.00,0.061
399.20,0.062
399.40,0.062
399.60,0.062
399.80,0.062
400.00,0.062
400.20,0.062
400.40,0.062
400.60,0.063
400.80,0.063
401.00,0.063
401.20,0.063
401.40,0.063
401.60,0.063
401.80,0.063
402.00,0.064
402.20,0.064
402.40,0.064
402.60,0.064
402.80,0.064
403.00,0.064
403.20,0.064
403.40,0.065
403.60,0.065
403.80,0.065
404.00,0.065
404.20,0.065
404.40,0.065
404.60,0.066
404.80,0.066
405.00,0.066
405.20,0.066
405.40,0.066
405.60,0.067
405.80,0.067
406.00,0.067
406.20,0.067
406.40,0.068
406.60,0.068
406.80,0.068
407.00,0.068
407.20,0.068
407.40,0.068
407.60,0.069
407.80,0.069
408.00,0.069
408.20,0.069
408.40,0.069
408.60,0.069
408.80,0.069
409.00,0.069
409.20,0.070
409.40,0.070
409.60,0.070
409.80,0.070
410.00,0.070
410.20,0.070
410.40,0.070
410.60,0.070
410.80,0.071
411.00,0.071
411.20,0.071
411.40,0.071
411.60,0.071
411.80,0.071
412.00,0.072
412.20,0.072
412.40,0.072
412.60,0.072
412.80,0.072
413.00,0.072
413.20,0.072
413.40,0.073
413.60,0.073
413.80,0.073
414.00,0.073
414.20,0.073
414.40,0.074
414.60,0.074
414.80,0.074
415.00,0.074
415.20,0.074
415.40,0.074
415.60,0.075
415.80,0.075
416.00,0.075
416.20,0.075
416.40,0.076
416.60,0.076
416.80,0.076
417.00,0.076
417.20,0.076
417.40,0.077
417.60,0.077
417.80,0.077
418.00,0.078
418.20,0.078
418.40,0.078
418.60,0.078
418.80,0.078
419.00,0.079
419.20,0.079
419.40,0.079
419.60,0.079
419.80,0.080
420.00,0.080
420.20,0.080
420.40,0.081
420.60,0.081
420.80,0.081
421.00,0.081
421.20,0.082
421.40,0.082
421.60,0.083
421.80,0.083
422.00,0.083
422.20,0.084
422.40,0.084
422.60,0.084
422.80,0.084
423.00,0.085
423.20,0.085
423.40,0.085
423.60,0.085
423.80,0.086
424.00,0.086
424.20,0.086
424.40,0.087
424.60,0.087
424.80,0.087
425.00,0.088
425.20,0.088
425.40,0.088
425.60,0.089
425.80,0.089
426.00,0.089
426.20,0.090
426.40,0.090
426.60,0.090
426.80,0.090
427.00,0.091
427.20,0.091
427.40,0.091
427.60,0.092
427.80,0.092
428.00,0.092
428.20,0.093
428.40,0.093
428.60,0.093
428.80,0.094
429.00,0.094
429.20,0.094
429.40,0.095
429.60,0.095
429.80,0.095
430.00,0.096
430.20,0.096
430.40,0.096
430.60,0.096
430.80,0.097
431.00,0.097
431.20,0.098
431.40,0.098
431.60,0.098
431.80,0.099
432.00,0.099
432.20,0.099
432.40,0.100
432.60,0.100
432.80,0.100
433.00,0.101
433.20,0.101
433.40,0.101
433.60,0.102
433.80,0.102
434.00,0.102
434.20,0.103
434.40,0.103
434.60,0.103
434.80,0.103
435.00,0.104
435.20,0.104
435.40,0.104
435.60,0.105
435.80,0.105
436.00,0.105
436.20,0.106
436.40,0.106
436.60,0.106
436.80,0.107
437.00,0.107
437.20,0.107
437.40,0.108
437.60,0.108
437.80,0.108
438.00,0.109
438.20,0.109
438.40,0.109
438.60,0.109
438.80,0.110
439.00,0.110
439.20,0.110
439.40,0.111
439.60,0.111
439.80,0.111
440.00,0.111
440.20,0.112
440.40,0.112
440.60,0.112
440.80,0.113
441.00,0.113
441.20,0.113
441.40,0.113
441.60,0.113
441.80,0.114
442.00,0.114
442.20,0.114
442.40,0.114
442.60,0.115
442.80,0.115
443.00,0.115
443.20,0.116
443.40,0.116
443.60,0.116
443.80,0.116
444.00,0.117
444.20,0.117
444.40,0.117
444.60,0.118
444.80,0.118
445.00,0.118
445.20,0.119
445.40,0.119
445.60,0.119
445.80,0.120
446.00,0.120
446.20,0.120
446.40,0.120
446.60,0.120
446.80,0.121
447.00,0.121
447.20,0.121
447.40,0.121
447.60,0.122
447.80,0.122
448.00,0.122
448.20,0.122
448.40,0.123
448.60,0.123
448.80,0.123
449.00,0.123
449.20,0.123
449.40,0.123
449.60,0.124
449.80,0.124
450.00,0.124
450.20,0.124
450.40,0.125
450.60,0.125
450.80,0.125
451.00,0.125
451.20,0.126
451.40,0.126
451.60,0.126
451.80,0.126
452.00,0.127
452.20,0.127
452.40,0.127
452.60,0.127
452.80,0.127
453.00,0.127
453.20,0.127
453.40,0.128
453.60,0.128
453.80,0.128
454.00,0.128
454.20,0.128
454.40,0.128
454.60,0.128
454.80,0.128
455.00,0.129
455.20,0.129
455.40,0.129
455.60,0.129
455.80,0.129
456.00,0.129
456.20,0.128
456.40,0.128
456.60,0.128
456.80,0.129
457.00,0.129
457.20,0.129
457.40,0.129
457.60,0.129
457.80,0.129
458.00,0.129
458.20,0.129
458.40,0.129
458.60,0.129
458.80,0.130
459.00,0.130
459.20,0.131
459.40,0.131
459.60,0.131
459.80,0.131
460.00,0.131
460.20,0.131
460.40,0.131
460.60,0.131
460.80,0.131
461.00,0.131
461.20,0.131
461.40,0.131
461.60,0.131
461.80,0.131
462.00,0.131
462.20,0.131
462.40,0.130
462.60,0.130
462.80,0.130
463.00,0.130
463.20,0.130
463.40,0.130
463.60,0.130
463.80,0.130
464.00,0.130
464.20,0.129
464.40,0.129
464.60,0.129
464.80,0.129
465.00,0.128
465.20,0.129
465.40,0.129
465.60,0.129
465.80,0.128
466.00,0.128
466.20,0.128
466.40,0.128
466.60,0.128
466.80,0.128
467.00,0.127
467.20,0.127
467.40,0.127
467.60,0.127
467.80,0.126
468.00,0.126
468.20,0.125
468.40,0.125
468.60,0.125
468.80,0.124
469.00,0.124
469.20,0.124
469.40,0.123
469.60,0.123
469.80,0.123
470.00,0.123
470.20,0.122
470.40,0.122
470.60,0.121
470.80,0.121
471.00,0.121
471.20,0.120
471.40,0.120
471.60,0.120
471.80,0.119
472.00,0.119
472.20,0.119
472.40,0.118
472.60,0.118
472.80,0.118
473.00,0.118
473.20,0.117
473.40,0.117
473.60,0.117
473.80,0.117
474.00,0.116
474.20,0.116
474.40,0.116
474.60,0.115
474.80,0.115
475.00,0.114
475.20,0.114
475.40,0.114
475.60,0.113
475.80,0.113
476.00,0.112
476.20,0.112
476.40,0.111
476.60,0.111
476.80,0.110
477.00,0.110
477.20,0.110
477.40,0.109
477.60,0.109
477.80,0.109
478.00,0.108
478.20,0.108
478.40,0.107
478.60,0.107
478.80,0.107
479.00,0.106
479.20,0.106
479.40,0.105
479.60,0.105
479.80,0.105
480.00,0.104
480.20,0.104
480.40,0.103
480.60,0.103
480.80,0.102
481.00,0.102
481.20,0.101
481.40,0.101
481.60,0.101
481.80,0.100
482.00,0.100
482.20,0.099
482.40,0.099
482.60,0.098
482.80,0.098
483.00,0.097
483.20,0.096
483.40,0.096
483.60,0.095
483.80,0.095
484.00,0.094
484.20,0.094
484.40,0.093
484.60,0.093
484.80,0.092
485.00,0.091
485.20,0.091
485.40,0.091
485.60,0.090
485.80,0.089
486.00,0.089
486.20,0.088
486.40,0.088
486.60,0.087
486.80,0.087
487.00,0.086
487.20,0.085
487.40,0.085
487.60,0.084
487.80,0.084
488.00,0.083
488.20,0.082
488.40,0.082
488.60,0.081
488.80,0.081
489.00,0.080
489.20,0.080
489.40,0.079
489.60,0.079
489.80,0.078
490.00,0.078
490.20,0.077
490.40,0.076
490.60,0.076
490.80,0.075
491.00,0.075
491.20,0.074
491.40,0.074
491.60,0.073
491.80,0.072
492.00,0.072
492.20,0.071
492.40,0.070
492.60,0.070
492.80,0.069
493.00,0.069
493.20,0.068
493.40,0.067
493.60,0.067
493.80,0.066
494.00,0.066
494.20,0.065
494.40,0.064
494.60,0.064
494.80,0.063
495.00,0.063
495.20,0.062
495.40,0.062
495.60,0.061
495.80,0.061
496.00,0.060
496.20,0.060
496.40,0.059
496.60,0.058
496.80,0.058
497.00,0.057
497.20,0.057
497.40,0.056
497.60,0.056
497.80,0.055
498.00,0.055
498.20,0.054
498.40,0.054
498.60,0.053
498.80,0.052
499.00,0.052
499.20,0.051
499.40,0.051
499.60,0.050
499.80,0.050
500.00,0.049
500.20,0.049
500.40,0.048
500.60,0.048
500.80,0.047
501.00,0.047
501.20,0.046
501.40,0.046
501.60,0.045
501.80,0.045
502.00,0.044
502.20,0.044
502.40,0.043
502.60,0.043
502.80,0.042
503.00,0.042
503.20,0.042
503.40,0.041
503.60,0.041
503.80,0.040
504.00,0.040
504.20,0.039
504.40,0.039
504.60,0.038
504.80,0.038
505.00,0.038
505.20,0.037
505.40,0.037
505.60,0.036
505.80,0.036
506.00,0.035
506.20,0.035
506.40,0.035
506.60,0.034
506.80,0.034
507.00,0.033
507.20,0.033
507.40,0.033
507.60,0.032
507.80,0.032
508.00,0.032
508.20,0.031
508.40,0.031
508.60,0.030
508.80,0.030
509.00,0.030
509.20,0.030
509.40,0.029
509.60,0.029
509.80,0.029
510.00,0.028
510.20,0.028
510.40,0.028
510.60,0.027
510.80,0.027
511.00,0.027
511.20,0.026
511.40,0.026
511.60,0.026
511.80,0.025
512.00,0.025
512.20,0.025
512.40,0.025
512.60,0.024
512.80,0.024
513.00,0.024
513.20,0.024
513.40,0.023
513.60,0.023
513.80,0.023
514.00,0.023
514.20,0.022
514.40,0.022
514.60,0.022
514.80,0.022
515.00,0.021
515.20,0.021
515.40,0.021
515.60,0.021
515.80,0.021
516.00,0.020
516.20,0.020
516.40,0.020
516.60,0.020
516.80,0.020
517.00,0.019
517.20,0.019
517.40,0.019
517.60,0.019
517.80,0.019
518.00,0.018
518.20,0.018
518.40,0.018
518.60,0.018
518.80,0.018
519.00,0.018
519.20,0.017
519.40,0.017
519.60,0.017
519.80,0.017
520.00,0.017
520.20,0.017
520.40,0.016
520.60,0.016
520.80,0.016
521.00,0.016
521.20,0.016
521.40,0.016
521.60,0.016
521.80,0.015
522.00,0.015
522.20,0.015
522.40,0.015
522.60,0.015
522.80,0.015
523.00,0.014
523.20,0.014
523.40,0.014
523.60,0.014
523.80,0.014
524.00,0.014
524.20,0.014
524.40,0.014
524.60,0.014
524.80,0.013
525.00,0.013
525.20,0.013
525.40,0.013
525.60,0.013
525.80,0.013
526.00,0.013
526.20,0.013
526.40,0.013
526.60,0.013
526.80,0.013
527.00,0.013
527.20,0.013
527.40,0.013
527.60,0.012
527.80,0.012
528.00,0.012
528.20,0.012
528.40,0.012
528.60,0.012
528.80,0.012
529.00,0.012
529.20,0.012
529.40,0.012
529.60,0.012
529.80,0.012
530.00,0.012
530.20,0.012
530.40,0.011
530.60,0.012
530.80,0.012
531.00,0.011
531.20,0.011
531.40,0.012
531.60,0.012
531.80,0.012
532.00,0.011
532.20,0.011
532.40,0.011
532.60,0.011
532.80,0.011
533.00,0.011
533.20,0.011
533.40,0.011
533.60,0.011
533.80,0.011
534.00,0.010
534.20,0.010
534.40,0.010
534.60,0.010
534.80,0.010
535.00,0.010
535.20,0.010
535.40,0.010
535.60,0.010
535.80,0.010
536.00,0.010
536.20,0.010
536.40,0.010
536.60,0.010
536.80,0.010
537.00,0.010
537.20,0.010
537.40,0.010
537.60,0.010
537.80,0.010
538.00,0.010
538.20,0.010
538.40,0.010
538.60,0.010
538.80,0.010
539.00,0.010
539.20,0.010
539.40,0.010
539.60,0.010
539.80,0.010
540.00,0.010
540.20,0.010
540.40,0.010
540.60,0.010
540.80,0.009
541.00,0.009
541.20,0.009
541.40,0.009
541.60,0.009
541.80,0.009
542.00,0.009
542.20,0.009
542.40,0.009
542.60,0.009
542.80,0.009
543.00,0.009
543.20,0.009
543.40,0.009
543.60,0.009
543.80,0.009
544.00,0.009
544.20,0.009
544.40,0.009
544.60,0.009
544.80,0.009
545.00,0.009
545.20,0.009
545.40,0.009
545.60,0.009
545.80,0.008
546.00,0.008
546.20,0.008
546.40,0.008
546.60,0.008
546.80,0.008
547.00,0.008
547.20,0.008
547.40,0.008
547.60,0.008
547.80,0.008
548.00,0.008
548.20,0.008
548.40,0.008
548.60,0.008
548.80,0.008
549.00,0.008
549.20,0.008
549.40,0.008
549.60,0.008
549.80,0.008
550.00,0.008
550.20,0.008
550.40,0.008
550.60,0.008
550.80,0.008
551.00,0.008
551.20,0.008
551.40,0.008
551.60,0.008
551.80,0.008
552.00,0.008
552.20,0.008
552.40,0.008
552.60,0.008
552.80,0.008
553.00,0.008
553.20,0.008
553.40,0.008
553.60,0.007
553.80,0.007
554.00,0.008
554.20,0.007
554.40,0.007
554.60,0.007
554.80,0.008
555.00,0.008
555.20,0.008
555.40,0.008
555.60,0.008
555.80,0.008
556.00,0.008
556.20,0.008
556.40,0.008
556.60,0.008
556.80,0.008
557.00,0.008
557.20,0.008
557.40,0.007
557.60,0.007
557.80,0.007
558.00,0.007
558.20,0.007
558.40,0.007
558.60,0.007
558.80,0.007
559.00,0.007
559.20,0.007
559.40,0.007
559.60,0.007
559.80,0.007
560.00,0.007
560.20,0.007
560.40,0.007
560.60,0.007
560.80,0.007
561.00,0.007
561.20,0.007
561.40,0.007
561.60,0.007
561.80,0.007
562.00,0.007
562.20,0.007
562.40,0.007
562.60,0.007
562.80,0.007
563.00,0.007
563.20,0.007
563.40,0.007
563.60,0.008
563.80,0.008
564.00,0.008
564.20,0.008
564.40,0.008
564.60,0.008
564.80,0.008
565.00,0.008
565.20,0.008
565.40,0.008
565.60,0.008
565.80,0.008
566.00,0.008
566.20,0.007
566.40,0.007
566.60,0.007
566.80,0.007
567.00,0.007
567.20,0.007
567.40,0.007
567.60,0.007
567.80,0.007
568.00,0.007
568.20,0.007
568.40,0.007
568.60,0.007
568.80,0.007
569.00,0.007
569.20,0.007
569.40,0.007
569.60,0.007
569.80,0.007
570.00,0.007
570.20,0.007
570.40,0.007
570.60,0.007
570.80,0.007
571.00,0.007
571.20,0.007
571.40,0.007
571.60,0.007
571.80,0.007
572.00,0.007
572.20,0.007
572.40,0.007
572.60,0.007
572.80,0.007
573.00,0.007
573.20,0.007
573.40,0.007
573.60,0.007
573.80,0.007
574.00,0.007
574.20,0.007
574.40,0.007
574.60,0.007
574.80,0.007
575.00,0.007
575.20,0.007
575.40,0.007
575.60,0.007
575.80,0.007
576.00,0.006
576.20,0.006
576.40,0.006
576.60,0.006
576.80,0.006
577.00,0.006
577.20,0.006
577.40,0.006
577.60,0.006
577.80,0.006
578.00,0.006
578.20,0.006
578.40,0.006
578.60,0.006
578.80,0.006
579.00,0.006
579.20,0.006
579.40,0.006
579.60,0.006
579.80,0.006
580.00,0.006
580.20,0.006
580.40,0.006
580.60,0.006
580.80,0.006
581.00,0.006
581.20,0.006
581.40,0.006
581.60,0.006
581.80,0.006
582.00,0.006
582.20,0.006
582.40,0.006
582.60,0.006
582.80,0.006
583.00,0.006
583.20,0.006
583.40,0.006
583.60,0.006
583.80,0.006
584.00,0.006
584.20,0.006
584.40,0.006
584.60,0.006
584.80,0.006
585.00,0.006
585.20,0.006
585.40,0.006
585.60,0.006
585.80,0.006
586.00,0.006
586.20,0.006
586.40,0.006
586.60,0.006
586.80,0.006
587.00,0.006
587.20,0.006
587.40,0.006
587.60,0.006
587.80,0.006
588.00,0.006
588.20,0.006
588.40,0.006
588.60,0.006
588.80,0.007
589.00,0.007
589.20,0.006
589.40,0.006
589.60,0.006
589.80,0.006
590.00,0.006
590.20,0.006
590.40,0.006
590.60,0.006
590.80,0.006
591.00,0.006
591.20,0.006
591.40,0.006
591.60,0.006
591.80,0.006
592.00,0.006
592.20,0.006
592.40,0.006
592.60,0.006
592.80,0.006
593.00,0.006
593.20,0.006
593.40,0.006
593.60,0.006
593.80,0.006
594.00,0.006
594.20,0.006
594.40,0.006
594.60,0.006
594.80,0.006
595.00,0.006
595.20,0.006
595.40,0.006
595.60,0.006
595.80,0.006
596.00,0.006
596.20,0.006
596.40,0.006
596.60,0.006
596.80,0.006
597.00,0.006
597.20,0.006
597.40,0.006
597.60,0.006
597.80,0.006
598.00,0.006
598.20,0.006
598.40,0.006
598.60,0.006
598.80,0.006
599.00,0.006
599.20,0.006
599.40,0.006
599.60,0.006
599.80,0.006
600.00,0.006
600.20,0.006
600.40,0.006
600.60,0.006
600.80,0.006
601.00,0.006
601.20,0.006
601.40,0.006
601.60,0.006
601.80,0.006
602.00,0.006
602.20,0.006
602.40,0.006
602.60,0.006
602.80,0.006
603.00,0.006
603.20,0.006
603.40,0.006
603.60,0.006
603.80,0.006
604.00,0.006
604.20,0.006
604.40,0.006
604.60,0.006
604.80,0.006
605.00,0.006
605.20,0.006
605.40,0.006
605.60,0.006
605.80,0.006
606.00,0.006
606.20,0.006
606.40,0.006
606.60,0.006
606.80,0.005
607.00,0.005
607.20,0.005
607.40,0.005
607.60,0.005
607.80,0.005
608.00,0.005
608.20,0.005
608.40,0.005
608.60,0.005
608.80,0.005
609.00,0.005
609.20,0.005
609.40,0.005
609.60,0.005
609.80,0.005
610.00,0.005
610.20,0.005
610.40,0.005
610.60,0.005
610.80,0.005
611.00,0.005
611.20,0.005
611.40,0.005
611.60,0.005
611.80,0.005
612.00,0.005
612.20,0.005
612.40,0.006
612.60,0.005
612.80,0.005
613.00,0.006
613.20,0.005
613.40,0.005
613.60,0.005
613.80,0.005
614.00,0.005
614.20,0.005
614.40,0.005
614.60,0.005
614.80,0.005
615.00,0.005
615.20,0.005
615.40,0.005
615.60,0.005
615.80,0.005
616.00,0.005
616.20,0.005
616.40,0.005
616.60,0.005
616.80,0.005
617.00,0.005
617.20,0.005
617.40,0.005
617.60,0.005
617.80,0.005
618.00,0.005
618.20,0.005
618.40,0.005
618.60,0.005
618.80,0.005
619.00,0.005
619.20,0.005
619.40,0.005
619.60,0.005
619.80,0.005
620.00,0.005
620.20,0.005
620.40,0.005
620.60,0.005
620.80,0.005
621.00,0.005
621.20,0.005
621.40,0.005
621.60,0.005
621.80,0.005
622.00,0.005
622.20,0.005
622.40,0.005
622.60,0.005
622.80,0.005
623.00,0.005
623.20,0.005
623.40,0.005
623.60,0.005
623.80,0.005
624.00,0.005
624.20,0.005
624.40,0.005
624.60,0.005
624.80,0.005
625.00,0.005
625.20,0.005
625.40,0.005
625.60,0.005
625.80,0.005
626.00,0.005
626.20,0.005
626.40,0.005
626.60,0.005
626.80,0.005
627.00,0.005
627.20,0.005
627.40,0.005
627.60,0.005
627.80,0.005
628.00,0.005
628.20,0.005
628.40,0.005
628.60,0.005
628.80,0.005
629.00,0.005
629.20,0.005
629.40,0.005
629.60,0.005
629.80,0.005
630.00,0.005
630.20,0.005
630.40,0.005
630.60,0.005
630.80,0.005
631.00,0.005
631.20,0.005
631.40,0.005
631.60,0.005
631.80,0.005
632.00,0.005
632.20,0.005
632.40,0.005
632.60,0.005
632.80,0.005
633.00,0.005
633.20,0.005
633.40,0.005
633.60,0.005
633.80,0.005
634.00,0.005
634.20,0.005
634.40,0.005
634.60,0.005
634.80,0.005
635.00,0.005
635.20,0.005
635.40,0.005
635.60,0.005
635.80,0.005
636.00,0.005
636.20,0.005
636.40,0.005
636.60,0.005
636.80,0.005
637.00,0.005
637.20,0.005
637.40,0.005
637.60,0.005
637.80,0.005
638.00,0.005
638.20,0.005
638.40,0.005
638.60,0.005
638.80,0.005
639.00,0.005
639.20,0.005
639.40,0.005
639.60,0.005
639.80,0.005
640.00,0.005
640.20,0.005
640.40,0.005
640.60,0.005
640.80,0.005
641.00,0.005
641.20,0.005
641.40,0.005
641.60,0.005
641.80,0.005
642.00,0.005
642.20,0.005
642.40,0.005
642.60,0.005
642.80,0.005
643.00,0.005
643.20,0.005
643.40,0.005
643.60,0.005
643.80,0.005
644.00,0.005
644.20,0.005
644.40,0.005
644.60,0.005
644.80,0.005
645.00,0.005
645.20,0.005
645.40,0.005
645.60,0.004
645.80,0.004
646.00,0.004
646.20,0.004
646.40,0.004
646.60,0.004
646.80,0.004
647.00,0.004
647.20,0.004
647.40,0.004
647.60,0.004
647.80,0.004
648.00,0.004
648.20,0.003
648.40,0.004
648.60,0.003
648.80,0.003
649.00,0.003
649.20,0.004
649.40,0.003
649.60,0.003
649.80,0.004
650.00,0.003